The five columns in this file are (in order): kinetic energy, potential energy, angular momentum (x,y,z)
1.90941 -7.32337 0.156069 0.0289688 6.97609
1.90963 -7.32359 0.156069 0.0289688 6.97609
1.90985 -7.32381 0.156069 0.0289688 6.97609
1.91008 -7.32404 0.156069 0.0289688 6.97609
1.91031 -7.32427 0.156069 0.0289688 6.97609
1.91055 -7.32451 0.156069 0.0289688 6.97609
1.91078 -7.32474 0.156069 0.0289688 6.97609
1.91102 -7.32498 0.156069 0.0289688 6.97609
1.91127 -7.32523 0.156069 0.0289688 6.97609
1.91151 -7.32547 0.156069 0.0289688 6.97609
1.91176 -7.32572 0.156069 0.0289688 6.97609
1.91201 -7.32597 0.156069 0.0289688 6.97609
1.91227 -7.32623 0.156069 0.0289688 6.97609
1.91253 -7.32648 0.156069 0.0289688 6.97609
1.91279 -7.32674 0.156069 0.0289688 6.97609
1.91305 -7.32701 0.156069 0.0289688 6.97609
1.91332 -7.32727 0.156069 0.0289688 6.97609
1.91358 -7.32754 0.156069 0.0289688 6.97609
1.91386 -7.32782 0.156069 0.0289688 6.97609
1.91413 -7.32809 0.156069 0.0289688 6.97609
1.91441 -7.32837 0.156069 0.0289688 6.97609
1.91469 -7.32865 0.156069 0.0289688 6.97609
1.91497 -7.32893 0.156069 0.0289688 6.97609
1.91526 -7.32922 0.156069 0.0289688 6.97609
1.91555 -7.32951 0.156069 0.0289688 6.97609
1.91584 -7.3298 0.156069 0.0289688 6.97609
1.91614 -7.3301 0.156069 0.0289688 6.97609
1.91644 -7.33039 0.156069 0.0289688 6.97609
1.91674 -7.3307 0.156069 0.0289688 6.97609
1.91704 -7.331 0.156069 0.0289688 6.97609
1.91735 -7.33131 0.156069 0.0289688 6.97609
1.91766 -7.33162 0.156069 0.0289688 6.97609
1.91797 -7.33193 0.156069 0.0289688 6.97609
1.91829 -7.33225 0.156069 0.0289688 6.97609
1.91861 -7.33257 0.156069 0.0289688 6.97609
1.91893 -7.33289 0.156069 0.0289688 6.97609
1.91925 -7.33321 0.156069 0.0289688 6.97609
1.91958 -7.33354 0.156069 0.0289688 6.97609
1.91991 -7.33387 0.156069 0.0289688 6.97609
1.92025 -7.3342 0.156069 0.0289688 6.97609
1.92058 -7.33454 0.156069 0.0289688 6.97609
1.92092 -7.33488 0.156069 0.0289688 6.97609
1.92126 -7.33522 0.156069 0.0289688 6.97609
1.92161 -7.33557 0.156069 0.0289688 6.97609
1.92196 -7.33592 0.156069 0.0289688 6.97609
1.92231 -7.33627 0.156069 0.0289688 6.97609
1.92266 -7.33662 0.156069 0.0289688 6.97609
1.92302 -7.33698 0.156069 0.0289688 6.97609
1.92338 -7.33734 0.156069 0.0289688 6.97609
1.92374 -7.3377 0.156069 0.0289688 6.97609
1.92411 -7.33807 0.156069 0.0289688 6.97609
1.92448 -7.33844 0.156069 0.0289688 6.97609
1.92485 -7.33881 0.156069 0.0289688 6.97609
1.92522 -7.33918 0.156069 0.0289688 6.97609
1.9256 -7.33956 0.156069 0.0289688 6.97609
1.92598 -7.33994 0.156069 0.0289688 6.97609
1.92637 -7.34033 0.156069 0.0289688 6.97609
1.92675 -7.34071 0.156069 0.0289688 6.97609
1.92714 -7.3411 0.156069 0.0289688 6.97609
1.92754 -7.3415 0.156069 0.0289688 6.97609
1.92793 -7.34189 0.156069 0.0289688 6.97609
1.92833 -7.34229 0.156069 0.0289688 6.97609
1.92873 -7.34269 0.156069 0.0289688 6.97609
1.92914 -7.3431 0.156069 0.0289688 6.97609
1.92954 -7.3435 0.156069 0.0289688 6.97609
1.92995 -7.34391 0.156069 0.0289688 6.97609
1.93037 -7.34433 0.156069 0.0289688 6.97609
1.93078 -7.34474 0.156069 0.0289688 6.97609
1.9312 -7.34516 0.156069 0.0289688 6.97609
1.93163 -7.34558 0.156069 0.0289688 6.97609
1.93205 -7.34601 0.156069 0.0289688 6.97609
1.93248 -7.34644 0.156069 0.0289688 6.97609
1.93291 -7.34687 0.156069 0.0289688 6.97609
1.93334 -7.3473 0.156069 0.0289688 6.97609
1.93378 -7.34774 0.156069 0.0289688 6.97609
1.93422 -7.34818 0.156069 0.0289688 6.97609
1.93466 -7.34862 0.156069 0.0289688 6.97609
1.93511 -7.34907 0.156069 0.0289688 6.97609
1.93556 -7.34952 0.156069 0.0289688 6.97609
1.93601 -7.34997 0.156069 0.0289688 6.97609
1.93647 -7.35043 0.156069 0.0289688 6.97609
1.93693 -7.35088 0.156069 0.0289688 6.97609
1.93739 -7.35135 0.156069 0.0289688 6.97609
1.93785 -7.35181 0.156069 0.0289688 6.97609
1.93832 -7.35228 0.156069 0.0289688 6.97609
1.93879 -7.35275 0.156069 0.0289688 6.97609
1.93926 -7.35322 0.156069 0.0289688 6.97609
1.93974 -7.3537 0.156069 0.0289688 6.97609
1.94022 -7.35417 0.156069 0.0289688 6.97609
1.9407 -7.35466 0.156069 0.0289688 6.97609
1.94118 -7.35514 0.156069 0.0289688 6.97609
1.94167 -7.35563 0.156069 0.0289688 6.97609
1.94216 -7.35612 0.156069 0.0289688 6.97609
1.94266 -7.35661 0.156069 0.0289688 6.97609
1.94315 -7.35711 0.156069 0.0289688 6.97609
1.94365 -7.35761 0.156069 0.0289688 6.97609
1.94416 -7.35811 0.156069 0.0289688 6.97609
1.94466 -7.35862 0.156069 0.0289688 6.97609
1.94517 -7.35913 0.156069 0.0289688 6.97609
1.94568 -7.35964 0.156069 0.0289688 6.97609
1.9462 -7.36016 0.156069 0.0289688 6.97609
1.94672 -7.36067 0.156069 0.0289688 6.97609
1.94724 -7.3612 0.156069 0.0289688 6.97609
1.94776 -7.36172 0.156069 0.0289688 6.97609
1.94829 -7.36225 0.156069 0.0289688 6.97609
1.94882 -7.36278 0.156069 0.0289688 6.97609
1.94935 -7.36331 0.156069 0.0289688 6.97609
1.94989 -7.36385 0.156069 0.0289688 6.97609
1.95043 -7.36439 0.156069 0.0289688 6.97609
1.95097 -7.36493 0.156069 0.0289688 6.97609
1.95151 -7.36547 0.156069 0.0289688 6.97609
1.95206 -7.36602 0.156069 0.0289688 6.97609
1.95261 -7.36657 0.156069 0.0289688 6.97609
1.95317 -7.36713 0.156069 0.0289688 6.97609
1.95373 -7.36768 0.156069 0.0289688 6.97609
1.95429 -7.36824 0.156069 0.0289688 6.97609
1.95485 -7.36881 0.156069 0.0289688 6.97609
1.95542 -7.36937 0.156069 0.0289688 6.97609
1.95599 -7.36994 0.156069 0.0289688 6.97609
1.95656 -7.37052 0.156069 0.0289688 6.97609
1.95713 -7.37109 0.156069 0.0289688 6.97609
1.95771 -7.37167 0.156069 0.0289688 6.97609
1.95829 -7.37225 0.156069 0.0289688 6.97609
1.95888 -7.37284 0.156069 0.0289688 6.97609
1.95947 -7.37343 0.156069 0.0289688 6.97609
1.96006 -7.37402 0.156069 0.0289688 6.97609
1.96065 -7.37461 0.156069 0.0289688 6.97609
1.96125 -7.37521 0.156069 0.0289688 6.97609
1.96185 -7.37581 0.156069 0.0289688 6.97609
1.96245 -7.37641 0.156069 0.0289688 6.97609
1.96306 -7.37702 0.156069 0.0289688 6.97609
1.96367 -7.37763 0.156069 0.0289688 6.97609
1.96428 -7.37824 0.156069 0.0289688 6.97609
1.96489 -7.37885 0.156069 0.0289688 6.97609
1.96551 -7.37947 0.156069 0.0289688 6.97609
1.96613 -7.38009 0.156069 0.0289688 6.97609
1.96676 -7.38072 0.156069 0.0289688 6.97609
1.96739 -7.38135 0.156069 0.0289688 6.97609
1.96802 -7.38198 0.156069 0.0289688 6.97609
1.96865 -7.38261 0.156069 0.0289688 6.97609
1.96929 -7.38325 0.156069 0.0289688 6.97609
1.96993 -7.38389 0.156069 0.0289688 6.97609
1.97057 -7.38453 0.156069 0.0289688 6.97609
1.97122 -7.38518 0.156069 0.0289688 6.97609
1.97187 -7.38582 0.156069 0.0289688 6.97609
1.97252 -7.38648 0.156069 0.0289688 6.97609
1.97317 -7.38713 0.156069 0.0289688 6.97609
1.97383 -7.38779 0.156069 0.0289688 6.97609
1.97449 -7.38845 0.156069 0.0289688 6.97609
1.97516 -7.38912 0.156069 0.0289688 6.97609
1.97582 -7.38978 0.156069 0.0289688 6.97609
1.9765 -7.39046 0.156069 0.0289688 6.97609
1.97717 -7.39113 0.156069 0.0289688 6.97609
1.97785 -7.39181 0.156069 0.0289688 6.97609
1.97853 -7.39249 0.156069 0.0289688 6.97609
1.97921 -7.39317 0.156069 0.0289688 6.97609
1.9799 -7.39386 0.156069 0.0289688 6.97609
1.98059 -7.39455 0.156069 0.0289688 6.97609
1.98128 -7.39524 0.156069 0.0289688 6.97609
1.98197 -7.39593 0.156069 0.0289688 6.97609
1.98267 -7.39663 0.156069 0.0289688 6.97609
1.98337 -7.39733 0.156069 0.0289688 6.97609
1.98408 -7.39804 0.156069 0.0289688 6.97609
1.98479 -7.39875 0.156069 0.0289688 6.97609
1.9855 -7.39946 0.156069 0.0289688 6.97609
1.98621 -7.40017 0.156069 0.0289688 6.97609
1.98693 -7.40089 0.156069 0.0289688 6.97609
1.98765 -7.40161 0.156069 0.0289688 6.97609
1.98837 -7.40233 0.156069 0.0289688 6.97609
1.9891 -7.40306 0.156069 0.0289688 6.97609
1.98983 -7.40379 0.156069 0.0289688 6.97609
1.99056 -7.40452 0.156069 0.0289688 6.97609
1.9913 -7.40526 0.156069 0.0289688 6.97609
1.99204 -7.406 0.156069 0.0289688 6.97609
1.99278 -7.40674 0.156069 0.0289688 6.97609
1.99353 -7.40749 0.156069 0.0289688 6.97609
1.99428 -7.40824 0.156069 0.0289688 6.97609
1.99503 -7.40899 0.156069 0.0289688 6.97609
1.99578 -7.40974 0.156069 0.0289688 6.97609
1.99654 -7.4105 0.156069 0.0289688 6.97609
1.9973 -7.41126 0.156069 0.0289688 6.97609
1.99807 -7.41203 0.156069 0.0289688 6.97609
1.99884 -7.4128 0.156069 0.0289688 6.97609
1.99961 -7.41357 0.156069 0.0289688 6.97609
2.00038 -7.41434 0.156069 0.0289688 6.97609
2.00116 -7.41512 0.156069 0.0289688 6.97609
2.00194 -7.4159 0.156069 0.0289688 6.97609
2.00272 -7.41668 0.156069 0.0289688 6.97609
2.00351 -7.41747 0.156069 0.0289688 6.97609
2.0043 -7.41826 0.156069 0.0289688 6.97609
2.00509 -7.41905 0.156069 0.0289688 6.97609
2.00589 -7.41985 0.156069 0.0289688 6.97609
2.00669 -7.42065 0.156069 0.0289688 6.97609
2.00749 -7.42145 0.156069 0.0289688 6.97609
2.0083 -7.42226 0.156069 0.0289688 6.97609
2.00911 -7.42307 0.156069 0.0289688 6.97609
2.00992 -7.42388 0.156069 0.0289688 6.97609
2.01073 -7.42469 0.156069 0.0289688 6.97609
2.01155 -7.42551 0.156069 0.0289688 6.97609
2.01237 -7.42633 0.156069 0.0289688 6.97609
2.0132 -7.42716 0.156069 0.0289688 6.97609
2.01403 -7.42799 0.156069 0.0289688 6.97609
2.01486 -7.42882 0.156069 0.0289688 6.97609
2.01569 -7.42965 0.156069 0.0289688 6.97609
2.01653 -7.43049 0.156069 0.0289688 6.97609
2.01737 -7.43133 0.156069 0.0289688 6.97609
2.01822 -7.43218 0.156069 0.0289688 6.97609
2.01906 -7.43302 0.156069 0.0289688 6.97609
2.01992 -7.43388 0.156069 0.0289688 6.97609
2.02077 -7.43473 0.156069 0.0289688 6.97609
2.02163 -7.43559 0.156069 0.0289688 6.97609
2.02249 -7.43645 0.156069 0.0289688 6.97609
2.02335 -7.43731 0.156069 0.0289688 6.97609
2.02422 -7.43818 0.156069 0.0289688 6.97609
2.02509 -7.43905 0.156069 0.0289688 6.97609
2.02596 -7.43992 0.156069 0.0289688 6.97609
2.02684 -7.4408 0.156069 0.0289688 6.97609
2.02772 -7.44168 0.156069 0.0289688 6.97609
2.0286 -7.44256 0.156069 0.0289688 6.97609
2.02949 -7.44345 0.156069 0.0289688 6.97609
2.03038 -7.44434 0.156069 0.0289688 6.97609
2.03127 -7.44523 0.156069 0.0289688 6.97609
2.03217 -7.44613 0.156069 0.0289688 6.97609
2.03306 -7.44702 0.156069 0.0289688 6.97609
2.03397 -7.44793 0.156069 0.0289688 6.97609
2.03487 -7.44883 0.156069 0.0289688 6.97609
2.03578 -7.44974 0.156069 0.0289688 6.97609
2.03669 -7.45065 0.156069 0.0289688 6.97609
2.03761 -7.45157 0.156069 0.0289688 6.97609
2.03853 -7.45249 0.156069 0.0289688 6.97609
2.03945 -7.45341 0.156069 0.0289688 6.97609
2.04038 -7.45434 0.156069 0.0289688 6.97609
2.04131 -7.45527 0.156069 0.0289688 6.97609
2.04224 -7.4562 0.156069 0.0289688 6.97609
2.04317 -7.45713 0.156069 0.0289688 6.97609
2.04411 -7.45807 0.156069 0.0289688 6.97609
2.04505 -7.45901 0.156069 0.0289688 6.97609
2.046 -7.45996 0.156069 0.0289688 6.97609
2.04695 -7.46091 0.156069 0.0289688 6.97609
2.0479 -7.46186 0.156069 0.0289688 6.97609
2.04885 -7.46281 0.156069 0.0289688 6.97609
2.04981 -7.46377 0.156069 0.0289688 6.97609
2.05077 -7.46473 0.156069 0.0289688 6.97609
2.05174 -7.4657 0.156069 0.0289688 6.97609
2.05271 -7.46667 0.156069 0.0289688 6.97609
2.05368 -7.46764 0.156069 0.0289688 6.97609
2.05466 -7.46861 0.156069 0.0289688 6.97609
2.05563 -7.46959 0.156069 0.0289688 6.97609
2.05662 -7.47057 0.156069 0.0289688 6.97609
2.0576 -7.47156 0.156069 0.0289688 6.97609
2.05859 -7.47255 0.156069 0.0289688 6.97609
2.05958 -7.47354 0.156069 0.0289688 6.97609
2.06058 -7.47453 0.156069 0.0289688 6.97609
2.06157 -7.47553 0.156069 0.0289688 6.97609
2.06258 -7.47653 0.156069 0.0289688 6.97609
2.06358 -7.47754 0.156069 0.0289688 6.97609
2.06459 -7.47855 0.156069 0.0289688 6.97609
2.0656 -7.47956 0.156069 0.0289688 6.97609
2.06662 -7.48058 0.156069 0.0289688 6.97609
2.06763 -7.48159 0.156069 0.0289688 6.97609
2.06866 -7.48262 0.156069 0.0289688 6.97609
2.06968 -7.48364 0.156069 0.0289688 6.97609
2.07071 -7.48467 0.156069 0.0289688 6.97609
2.07174 -7.4857 0.156069 0.0289688 6.97609
2.07278 -7.48674 0.156069 0.0289688 6.97609
2.07382 -7.48777 0.156069 0.0289688 6.97609
2.07486 -7.48882 0.156069 0.0289688 6.97609
2.0759 -7.48986 0.156069 0.0289688 6.97609
2.07695 -7.49091 0.156069 0.0289688 6.97609
2.078 -7.49196 0.156069 0.0289688 6.97609
2.07906 -7.49302 0.156069 0.0289688 6.97609
2.08012 -7.49408 0.156069 0.0289688 6.97609
2.08118 -7.49514 0.156069 0.0289688 6.97609
2.08225 -7.49621 0.156069 0.0289688 6.97609
2.08332 -7.49728 0.156069 0.0289688 6.97609
2.08439 -7.49835 0.156069 0.0289688 6.97609
2.08546 -7.49942 0.156069 0.0289688 6.97609
2.08654 -7.5005 0.156069 0.0289688 6.97609
2.08763 -7.50159 0.156069 0.0289688 6.97609
2.08871 -7.50267 0.156069 0.0289688 6.97609
2.0898 -7.50376 0.156069 0.0289688 6.97609
2.0909 -7.50486 0.156069 0.0289688 6.97609
2.09199 -7.50595 0.156069 0.0289688 6.97609
2.09309 -7.50705 0.156069 0.0289688 6.97609
2.0942 -7.50816 0.156069 0.0289688 6.97609
2.0953 -7.50926 0.156069 0.0289688 6.97609
2.09641 -7.51037 0.156069 0.0289688 6.97609
2.09753 -7.51149 0.156069 0.0289688 6.97609
2.09864 -7.5126 0.156069 0.0289688 6.97609
2.09976 -7.51372 0.156069 0.0289688 6.97609
2.10089 -7.51485 0.156069 0.0289688 6.97609
2.10202 -7.51598 0.156069 0.0289688 6.97609
2.10315 -7.51711 0.156069 0.0289688 6.97609
2.10428 -7.51824 0.156069 0.0289688 6.97609
2.10542 -7.51938 0.156069 0.0289688 6.97609
2.10656 -7.52052 0.156069 0.0289688 6.97609
2.10771 -7.52167 0.156069 0.0289688 6.97609
2.10885 -7.52281 0.156069 0.0289688 6.97609
2.11001 -7.52397 0.156069 0.0289688 6.97609
2.11116 -7.52512 0.156069 0.0289688 6.97609
2.11232 -7.52628 0.156069 0.0289688 6.97609
2.11348 -7.52744 0.156069 0.0289688 6.97609
2.11465 -7.52861 0.156069 0.0289688 6.97609
2.11582 -7.52978 0.156069 0.0289688 6.97609
2.11699 -7.53095 0.156069 0.0289688 6.97609
2.11817 -7.53213 0.156069 0.0289688 6.97609
2.11935 -7.53331 0.156069 0.0289688 6.97609
2.12053 -7.53449 0.156069 0.0289688 6.97609
2.12172 -7.53568 0.156069 0.0289688 6.97609
2.12291 -7.53687 0.156069 0.0289688 6.97609
2.1241 -7.53806 0.156069 0.0289688 6.97609
2.1253 -7.53926 0.156069 0.0289688 6.97609
2.1265 -7.54046 0.156069 0.0289688 6.97609
2.12771 -7.54167 0.156069 0.0289688 6.97609
2.12891 -7.54287 0.156069 0.0289688 6.97609
2.13012 -7.54408 0.156069 0.0289688 6.97609
2.13134 -7.5453 0.156069 0.0289688 6.97609
2.13256 -7.54652 0.156069 0.0289688 6.97609
2.13378 -7.54774 0.156069 0.0289688 6.97609
2.13501 -7.54897 0.156069 0.0289688 6.97609
2.13624 -7.5502 0.156069 0.0289688 6.97609
2.13747 -7.55143 0.156069 0.0289688 6.97609
2.13871 -7.55267 0.156069 0.0289688 6.97609
2.13995 -7.55391 0.156069 0.0289688 6.97609
2.14119 -7.55515 0.156069 0.0289688 6.97609
2.14244 -7.5564 0.156069 0.0289688 6.97609
2.14369 -7.55765 0.156069 0.0289688 6.97609
2.14494 -7.5589 0.156069 0.0289688 6.97609
2.1462 -7.56016 0.156069 0.0289688 6.97609
2.14746 -7.56142 0.156069 0.0289688 6.97609
2.14873 -7.56269 0.156069 0.0289688 6.97609
2.15 -7.56396 0.156069 0.0289688 6.97609
2.15127 -7.56523 0.156069 0.0289688 6.97609
2.15255 -7.56651 0.156069 0.0289688 6.97609
2.15382 -7.56778 0.156069 0.0289688 6.97609
2.15511 -7.56907 0.156069 0.0289688 6.97609
2.1564 -7.57036 0.156069 0.0289688 6.97609
2.15769 -7.57165 0.156069 0.0289688 6.97609
2.15898 -7.57294 0.156069 0.0289688 6.97609
2.16028 -7.57424 0.156069 0.0289688 6.97609
2.16158 -7.57554 0.156069 0.0289688 6.97609
2.16288 -7.57684 0.156069 0.0289688 6.97609
2.16419 -7.57815 0.156069 0.0289688 6.97609
2.16551 -7.57947 0.156069 0.0289688 6.97609
2.16682 -7.58078 0.156069 0.0289688 6.97609
2.16814 -7.5821 0.156069 0.0289688 6.97609
2.16946 -7.58343 0.156069 0.0289688 6.97609
2.17079 -7.58475 0.156069 0.0289688 6.97609
2.17212 -7.58608 0.156069 0.0289688 6.97609
2.17346 -7.58742 0.156069 0.0289688 6.97609
2.1748 -7.58876 0.156069 0.0289688 6.97609
2.17614 -7.5901 0.156069 0.0289688 6.97609
2.17748 -7.59144 0.156069 0.0289688 6.97609
2.17883 -7.59279 0.156069 0.0289688 6.97609
2.18018 -7.59414 0.156069 0.0289688 6.97609
2.18154 -7.5955 0.156069 0.0289688 6.97609
2.1829 -7.59686 0.156069 0.0289688 6.97609
2.18427 -7.59823 0.156069 0.0289688 6.97609
2.18563 -7.59959 0.156069 0.0289688 6.97609
2.187 -7.60096 0.156069 0.0289688 6.97609
2.18838 -7.60234 0.156069 0.0289688 6.97609
2.18976 -7.60372 0.156069 0.0289688 6.97609
2.19114 -7.6051 0.156069 0.0289688 6.97609
2.19253 -7.60649 0.156069 0.0289688 6.97609
2.19392 -7.60788 0.156069 0.0289688 6.97609
2.19531 -7.60927 0.156069 0.0289688 6.97609
2.19671 -7.61067 0.156069 0.0289688 6.97609
2.19811 -7.61207 0.156069 0.0289688 6.97609
2.19952 -7.61348 0.156069 0.0289688 6.97609
2.20092 -7.61488 0.156069 0.0289688 6.97609
2.20234 -7.6163 0.156069 0.0289688 6.97609
2.20375 -7.61771 0.156069 0.0289688 6.97609
2.20517 -7.61913 0.156069 0.0289688 6.97609
2.2066 -7.62056 0.156069 0.0289688 6.97609
2.20803 -7.62199 0.156069 0.0289688 6.97609
2.20946 -7.62342 0.156069 0.0289688 6.97609
2.21089 -7.62485 0.156069 0.0289688 6.97609
2.21233 -7.62629 0.156069 0.0289688 6.97609
2.21377 -7.62773 0.156069 0.0289688 6.97609
2.21522 -7.62918 0.156069 0.0289688 6.97609
2.21667 -7.63063 0.156069 0.0289688 6.97609
2.21813 -7.63209 0.156069 0.0289688 6.97609
2.21958 -7.63354 0.156069 0.0289688 6.97609
2.22105 -7.63501 0.156069 0.0289688 6.97609
2.22251 -7.63647 0.156069 0.0289688 6.97609
2.22398 -7.63794 0.156069 0.0289688 6.97609
2.22545 -7.63941 0.156069 0.0289688 6.97609
2.22693 -7.64089 0.156069 0.0289688 6.97609
2.22841 -7.64237 0.156069 0.0289688 6.97609
2.2299 -7.64386 0.156069 0.0289688 6.97609
2.23139 -7.64535 0.156069 0.0289688 6.97609
2.23288 -7.64684 0.156069 0.0289688 6.97609
2.23438 -7.64834 0.156069 0.0289688 6.97609
2.23588 -7.64984 0.156069 0.0289688 6.97609
2.23738 -7.65134 0.156069 0.0289688 6.97609
2.23889 -7.65285 0.156069 0.0289688 6.97609
2.2404 -7.65436 0.156069 0.0289688 6.97609
2.24192 -7.65588 0.156069 0.0289688 6.97609
2.24344 -7.6574 0.156069 0.0289688 6.97609
2.24496 -7.65892 0.156069 0.0289688 6.97609
2.24649 -7.66045 0.156069 0.0289688 6.97609
2.24802 -7.66198 0.156069 0.0289688 6.97609
2.24956 -7.66352 0.156069 0.0289688 6.97609
2.2511 -7.66506 0.156069 0.0289688 6.97609
2.25264 -7.6666 0.156069 0.0289688 6.97609
2.25419 -7.66815 0.156069 0.0289688 6.97609
2.25574 -7.6697 0.156069 0.0289688 6.97609
2.25729 -7.67125 0.156069 0.0289688 6.97609
2.25885 -7.67281 0.156069 0.0289688 6.97609
2.26041 -7.67437 0.156069 0.0289688 6.97609
2.26198 -7.67594 0.156069 0.0289688 6.97609
2.26355 -7.67751 0.156069 0.0289688 6.97609
2.26513 -7.67909 0.156069 0.0289688 6.97609
2.26671 -7.68067 0.156069 0.0289688 6.97609
2.26829 -7.68225 0.156069 0.0289688 6.97609
2.26988 -7.68384 0.156069 0.0289688 6.97609
2.27147 -7.68543 0.156069 0.0289688 6.97609
2.27306 -7.68702 0.156069 0.0289688 6.97609
2.27466 -7.68862 0.156069 0.0289688 6.97609
2.27626 -7.69022 0.156069 0.0289688 6.97609
2.27787 -7.69183 0.156069 0.0289688 6.97609
2.27948 -7.69344 0.156069 0.0289688 6.97609
2.2811 -7.69506 0.156069 0.0289688 6.97609
2.28271 -7.69667 0.156069 0.0289688 6.97609
2.28434 -7.6983 0.156069 0.0289688 6.97609
2.28596 -7.69992 0.156069 0.0289688 6.97609
2.28759 -7.70156 0.156069 0.0289688 6.97609
2.28923 -7.70319 0.156069 0.0289688 6.97609
2.29087 -7.70483 0.156069 0.0289688 6.97609
2.29251 -7.70647 0.156069 0.0289688 6.97609
2.29416 -7.70812 0.156069 0.0289688 6.97609
2.29581 -7.70977 0.156069 0.0289688 6.97609
2.29747 -7.71143 0.156069 0.0289688 6.97609
2.29912 -7.71309 0.156069 0.0289688 6.97609
2.30079 -7.71475 0.156069 0.0289688 6.97609
2.30246 -7.71642 0.156069 0.0289688 6.97609
2.30413 -7.71809 0.156069 0.0289688 6.97609
2.3058 -7.71976 0.156069 0.0289688 6.97609
2.30748 -7.72144 0.156069 0.0289688 6.97609
2.30917 -7.72313 0.156069 0.0289688 6.97609
2.31085 -7.72482 0.156069 0.0289688 6.97609
2.31255 -7.72651 0.156069 0.0289688 6.97609
2.31424 -7.7282 0.156069 0.0289688 6.97609
2.31594 -7.7299 0.156069 0.0289688 6.97609
2.31765 -7.73161 0.156069 0.0289688 6.97609
2.31936 -7.73332 0.156069 0.0289688 6.97609
2.32107 -7.73503 0.156069 0.0289688 6.97609
2.32279 -7.73675 0.156069 0.0289688 6.97609
2.32451 -7.73847 0.156069 0.0289688 6.97609
2.32623 -7.74019 0.156069 0.0289688 6.97609
2.32796 -7.74192 0.156069 0.0289688 6.97609
2.3297 -7.74366 0.156069 0.0289688 6.97609
2.33143 -7.74539 0.156069 0.0289688 6.97609
2.33317 -7.74714 0.156069 0.0289688 6.97609
