The five columns in this file are (in order): kinetic energy, potential energy, angular momentum (x,y,z)
0.00445636 -0.00884802 0.000573526 0.000180901 0.021936
0.00446382 -0.00885549 0.000573526 0.000180901 0.021936
0.00446892 -0.00886059 0.000573526 0.000180901 0.021936
0.00447138 -0.00886304 0.000573526 0.000180901 0.021936
0.00447372 -0.00886539 0.000573526 0.000180901 0.021936
0.00447685 -0.00886851 0.000573526 0.000180901 0.021936
0.00448071 -0.00887237 0.000573526 0.000180901 0.021936
0.00448518 -0.00887684 0.000573526 0.000180901 0.021936
0.0044903 -0.00888197 0.000573526 0.000180901 0.021936
0.00449621 -0.00888787 0.000573526 0.000180901 0.021936
0.00450291 -0.00889458 0.000573526 0.000180901 0.021936
0.00450921 -0.00890087 0.000573526 0.000180901 0.021936
0.00451263 -0.00890429 0.000573526 0.000180901 0.021936
0.00451423 -0.00890589 0.000573526 0.000180901 0.021936
0.00451627 -0.00890793 0.000573526 0.000180901 0.021936
0.00451921 -0.00891087 0.000573526 0.000180901 0.021936
0.00452295 -0.00891461 0.000573526 0.000180901 0.021936
0.00452739 -0.00891905 0.000573526 0.000180901 0.021936
0.00453259 -0.00892425 0.000573526 0.000180901 0.021936
0.00453868 -0.00893034 0.000573526 0.000180901 0.021936
0.00454546 -0.00893713 0.000573526 0.000180901 0.021936
0.00455111 -0.00894278 0.000573526 0.000180901 0.021936
0.00455371 -0.00894537 0.000573526 0.000180901 0.021936
0.00455526 -0.00894692 0.000573526 0.000180901 0.021936
0.00455751 -0.00894917 0.000573526 0.000180901 0.021936
0.00456058 -0.00895225 0.000573526 0.000180901 0.021936
0.00456436 -0.00895602 0.000573526 0.000180901 0.021936
0.00456879 -0.00896045 0.000573526 0.000180901 0.021936
0.00457395 -0.00896562 0.000573526 0.000180901 0.021936
0.00457998 -0.00897164 0.000573526 0.000180901 0.021936
0.00458637 -0.00897804 0.000573526 0.000180901 0.021936
0.00459082 -0.00898248 0.000573526 0.000180901 0.021936
0.00459246 -0.00898412 0.000573526 0.000180901 0.021936
0.00459381 -0.00898547 0.000573526 0.000180901 0.021936
0.00459604 -0.0089877 0.000573526 0.000180901 0.021936
0.00459912 -0.00899078 0.000573526 0.000180901 0.021936
0.00460294 -0.0089946 0.000573526 0.000180901 0.021936
0.0046075 -0.00899916 0.000573526 0.000180901 0.021936
0.0046129 -0.00900457 0.000573526 0.000180901 0.021936
0.00461921 -0.00901088 0.000573526 0.000180901 0.021936
0.00462544 -0.00901711 0.000573526 0.000180901 0.021936
0.00462905 -0.00902071 0.000573526 0.000180901 0.021936
0.00463047 -0.00902213 0.000573526 0.000180901 0.021936
0.00463212 -0.00902378 0.000573526 0.000180901 0.021936
0.00463462 -0.00902628 0.000573526 0.000180901 0.021936
0.00463784 -0.0090295 0.000573526 0.000180901 0.021936
0.00464167 -0.00903333 0.000573526 0.000180901 0.021936
0.00464612 -0.00903778 0.000573526 0.000180901 0.021936
0.0046513 -0.00904297 0.000573526 0.000180901 0.021936
0.00465712 -0.00904878 0.000573526 0.000180901 0.021936
0.00466202 -0.00905368 0.000573526 0.000180901 0.021936
0.00466375 -0.00905541 0.000573526 0.000180901 0.021936
0.00466394 -0.00905559 0.000573526 0.000180901 0.021936
0.00466458 -0.00905624 0.000573526 0.000180901 0.021936
0.00466598 -0.00905764 0.000573526 0.000180901 0.021936
0.004668 -0.00905966 0.000573526 0.000180901 0.021936
0.0046706 -0.00906226 0.000573526 0.000180901 0.021936
0.00467388 -0.00906554 0.000573526 0.000180901 0.021936
0.00467798 -0.00906964 0.000573526 0.000180901 0.021936
0.00468258 -0.00907425 0.000573526 0.000180901 0.021936
0.00468559 -0.00907725 0.000573526 0.000180901 0.021936
0.00468563 -0.00907729 0.000573526 0.000180901 0.021936
0.00468507 -0.00907673 0.000573526 0.000180901 0.021936
0.00468533 -0.00907699 0.000573526 0.000180901 0.021936
0.00468646 -0.00907812 0.000573526 0.000180901 0.021936
0.00468834 -0.00908 0.000573526 0.000180901 0.021936
0.00469094 -0.00908261 0.000573526 0.000180901 0.021936
0.00469437 -0.00908603 0.000573526 0.000180901 0.021936
0.00469869 -0.00909035 0.000573526 0.000180901 0.021936
0.00470317 -0.00909483 0.000573526 0.000180901 0.021936
0.00470529 -0.00909695 0.000573526 0.000180901 0.021936
0.00470489 -0.00909654 0.000573526 0.000180901 0.021936
0.00470447 -0.00909613 0.000573526 0.000180901 0.021936
0.00470488 -0.00909654 0.000573526 0.000180901 0.021936
0.00470602 -0.00909768 0.000573526 0.000180901 0.021936
0.00470778 -0.00909944 0.000573526 0.000180901 0.021936
0.00471015 -0.00910181 0.000573526 0.000180901 0.021936
0.00471327 -0.00910493 0.000573526 0.000180901 0.021936
0.00471711 -0.00910877 0.000573526 0.000180901 0.021936
0.0047204 -0.00911206 0.000573526 0.000180901 0.021936
0.00472071 -0.00911237 0.000573526 0.000180901 0.021936
0.00471916 -0.00911082 0.000573526 0.000180901 0.021936
0.00471799 -0.00910965 0.000573526 0.000180901 0.021936
0.00471764 -0.0091093 0.000573526 0.000180901 0.021936
0.00471798 -0.00910964 0.000573526 0.000180901 0.021936
0.00471894 -0.0091106 0.000573526 0.000180901 0.021936
0.00472058 -0.00911224 0.000573526 0.000180901 0.021936
0.00472304 -0.0091147 0.000573526 0.000180901 0.021936
0.00472611 -0.00911777 0.000573526 0.000180901 0.021936
0.00472793 -0.00911959 0.000573526 0.000180901 0.021936
0.00472665 -0.0091183 0.000573526 0.000180901 0.021936
0.00472435 -0.00911601 0.000573526 0.000180901 0.021936
0.00472272 -0.00911437 0.000573526 0.000180901 0.021936
0.00472188 -0.00911354 0.000573526 0.000180901 0.021936
0.00472169 -0.00911335 0.000573526 0.000180901 0.021936
0.00472211 -0.00911377 0.000573526 0.000180901 0.021936
0.00472321 -0.00911487 0.000573526 0.000180901 0.021936
0.0047251 -0.00911676 0.000573526 0.000180901 0.021936
0.00472724 -0.0091189 0.000573526 0.000180901 0.021936
0.00472727 -0.00911892 0.000573526 0.000180901 0.021936
0.00472443 -0.00911608 0.000573526 0.000180901 0.021936
0.00472124 -0.0091129 0.000573526 0.000180901 0.021936
0.00471881 -0.00911047 0.000573526 0.000180901 0.021936
0.00471712 -0.00910878 0.000573526 0.000180901 0.021936
0.00471607 -0.00910772 0.000573526 0.000180901 0.021936
0.00471565 -0.00910731 0.000573526 0.000180901 0.021936
0.00471601 -0.00910767 0.000573526 0.000180901 0.021936
0.00471722 -0.00910888 0.000573526 0.000180901 0.021936
0.00471827 -0.00910993 0.000573526 0.000180901 0.021936
0.00471665 -0.00910831 0.000573526 0.000180901 0.021936
0.00471293 -0.00910459 0.000573526 0.000180901 0.021936
0.00470954 -0.0091012 0.000573526 0.000180901 0.021936
0.00470708 -0.00909874 0.000573526 0.000180901 0.021936
0.00470545 -0.00909711 0.000573526 0.000180901 0.021936
0.00470455 -0.00909621 0.000573526 0.000180901 0.021936
0.00470441 -0.00909607 0.000573526 0.000180901 0.021936
0.00470516 -0.00909682 0.000573526 0.000180901 0.021936
0.00470668 -0.00909834 0.000573526 0.000180901 0.021936
0.00470736 -0.00909902 0.000573526 0.000180901 0.021936
0.00470499 -0.00909664 0.000573526 0.000180901 0.021936
0.00470126 -0.00909291 0.000573526 0.000180901 0.021936
0.00469809 -0.00908975 0.000573526 0.000180901 0.021936
0.00469572 -0.00908737 0.000573526 0.000180901 0.021936
0.00469399 -0.00908564 0.000573526 0.000180901 0.021936
0.00469282 -0.00908448 0.000573526 0.000180901 0.021936
0.00469227 -0.00908393 0.000573526 0.000180901 0.021936
0.00469247 -0.00908413 0.000573526 0.000180901 0.021936
0.00469304 -0.0090847 0.000573526 0.000180901 0.021936
0.00469181 -0.00908347 0.000573526 0.000180901 0.021936
0.0046875 -0.00907916 0.000573526 0.000180901 0.021936
0.00468251 -0.00907416 0.000573526 0.000180901 0.021936
0.00467821 -0.00906986 0.000573526 0.000180901 0.021936
0.00467465 -0.00906631 0.000573526 0.000180901 0.021936
0.00467172 -0.00906337 0.000573526 0.000180901 0.021936
0.00466941 -0.00906107 0.000573526 0.000180901 0.021936
0.00466786 -0.00905952 0.000573526 0.000180901 0.021936
0.00466716 -0.00905881 0.000573526 0.000180901 0.021936
0.00466654 -0.0090582 0.000573526 0.000180901 0.021936
0.00466352 -0.00905517 0.000573526 0.000180901 0.021936
0.00465805 -0.0090497 0.000573526 0.000180901 0.021936
0.00465266 -0.00904431 0.000573526 0.000180901 0.021936
0.00464816 -0.00903981 0.000573526 0.000180901 0.021936
0.00464447 -0.00903613 0.000573526 0.000180901 0.021936
0.00464149 -0.00903314 0.000573526 0.000180901 0.021936
0.00463921 -0.00903087 0.000573526 0.000180901 0.021936
0.00463777 -0.00902942 0.000573526 0.000180901 0.021936
0.00463712 -0.00902878 0.000573526 0.000180901 0.021936
0.00463595 -0.0090276 0.000573526 0.000180901 0.021936
0.00463181 -0.00902347 0.000573526 0.000180901 0.021936
0.00462594 -0.0090176 0.000573526 0.000180901 0.021936
0.00462052 -0.00901217 0.000573526 0.000180901 0.021936
0.00461594 -0.00900759 0.000573526 0.000180901 0.021936
0.00461207 -0.00900373 0.000573526 0.000180901 0.021936
0.00460885 -0.00900051 0.000573526 0.000180901 0.021936
0.00460634 -0.008998 0.000573526 0.000180901 0.021936
0.00460469 -0.00899634 0.000573526 0.000180901 0.021936
0.00460366 -0.00899532 0.000573526 0.000180901 0.021936
0.00460137 -0.00899302 0.000573526 0.000180901 0.021936
0.00459604 -0.0089877 0.000573526 0.000180901 0.021936
0.00458985 -0.0089815 0.000573526 0.000180901 0.021936
0.00458442 -0.00897607 0.000573526 0.000180901 0.021936
0.00457987 -0.00897153 0.000573526 0.000180901 0.021936
0.00457608 -0.00896774 0.000573526 0.000180901 0.021936
0.00457301 -0.00896466 0.000573526 0.000180901 0.021936
0.00457073 -0.00896238 0.000573526 0.000180901 0.021936
0.00456934 -0.008961 0.000573526 0.000180901 0.021936
0.00456828 -0.00895993 0.000573526 0.000180901 0.021936
0.00456512 -0.00895677 0.000573526 0.000180901 0.021936
0.00455921 -0.00895086 0.000573526 0.000180901 0.021936
0.00455307 -0.00894472 0.000573526 0.000180901 0.021936
0.00454773 -0.00893938 0.000573526 0.000180901 0.021936
0.00454313 -0.00893478 0.000573526 0.000180901 0.021936
0.00453914 -0.0089308 0.000573526 0.000180901 0.021936
0.00453576 -0.00892742 0.000573526 0.000180901 0.021936
0.00453311 -0.00892476 0.000573526 0.000180901 0.021936
0.00453121 -0.00892287 0.000573526 0.000180901 0.021936
0.00452902 -0.00892067 0.000573526 0.000180901 0.021936
0.00452402 -0.00891567 0.000573526 0.000180901 0.021936
0.00451689 -0.00890854 0.000573526 0.000180901 0.021936
0.00451003 -0.00890168 0.000573526 0.000180901 0.021936
0.00450404 -0.00889569 0.000573526 0.000180901 0.021936
0.00449882 -0.00889047 0.000573526 0.000180901 0.021936
0.0044943 -0.00888595 0.000573526 0.000180901 0.021936
0.00449055 -0.0088822 0.000573526 0.000180901 0.021936
0.00448771 -0.00887937 0.000573526 0.000180901 0.021936
0.00448569 -0.00887735 0.000573526 0.000180901 0.021936
0.00448286 -0.00887451 0.000573526 0.000180901 0.021936
0.00447708 -0.00886873 0.000573526 0.000180901 0.021936
0.00447015 -0.0088618 0.000573526 0.000180901 0.021936
0.00446399 -0.00885564 0.000573526 0.000180901 0.021936
0.0044588 -0.00885046 0.000573526 0.000180901 0.021936
0.00445446 -0.00884612 0.000573526 0.000180901 0.021936
0.0044509 -0.00884256 0.000573526 0.000180901 0.021936
0.00444818 -0.00883984 0.000573526 0.000180901 0.021936
0.00444641 -0.00883807 0.000573526 0.000180901 0.021936
0.00444518 -0.00883684 0.000573526 0.000180901 0.021936
0.00444226 -0.00883392 0.000573526 0.000180901 0.021936
0.00443644 -0.0088281 0.000573526 0.000180901 0.021936
0.00443013 -0.00882178 0.000573526 0.000180901 0.021936
0.00442462 -0.00881627 0.000573526 0.000180901 0.021936
0.00441991 -0.00881157 0.000573526 0.000180901 0.021936
0.00441589 -0.00880754 0.000573526 0.000180901 0.021936
0.00441251 -0.00880416 0.000573526 0.000180901 0.021936
0.00440989 -0.00880155 0.000573526 0.000180901 0.021936
0.00440811 -0.00879977 0.000573526 0.000180901 0.021936
0.00440636 -0.00879802 0.000573526 0.000180901 0.021936
0.00440212 -0.00879378 0.000573526 0.000180901 0.021936
0.00439548 -0.00878713 0.000573526 0.000180901 0.021936
0.00438894 -0.00878059 0.000573526 0.000180901 0.021936
0.00438328 -0.00877493 0.000573526 0.000180901 0.021936
0.00437843 -0.00877009 0.000573526 0.000180901 0.021936
0.00437429 -0.00876595 0.000573526 0.000180901 0.021936
0.00437089 -0.00876254 0.000573526 0.000180901 0.021936
0.00436835 -0.00876001 0.000573526 0.000180901 0.021936
0.00436665 -0.00875831 0.000573526 0.000180901 0.021936
0.00436442 -0.00875608 0.000573526 0.000180901 0.021936
0.00435927 -0.00875092 0.000573526 0.000180901 0.021936
0.00435251 -0.00874416 0.000573526 0.000180901 0.021936
0.0043463 -0.00873795 0.000573526 0.000180901 0.021936
0.00434099 -0.00873265 0.000573526 0.000180901 0.021936
0.00433645 -0.0087281 0.000573526 0.000180901 0.021936
0.00433259 -0.00872425 0.000573526 0.000180901 0.021936
0.00432948 -0.00872113 0.000573526 0.000180901 0.021936
0.00432724 -0.0087189 0.000573526 0.000180901 0.021936
0.00432562 -0.00871727 0.000573526 0.000180901 0.021936
0.00432265 -0.0087143 0.000573526 0.000180901 0.021936
0.00431666 -0.00870831 0.000573526 0.000180901 0.021936
0.00430986 -0.00870151 0.000573526 0.000180901 0.021936
0.00430383 -0.00869549 0.000573526 0.000180901 0.021936
0.00429871 -0.00869036 0.000573526 0.000180901 0.021936
0.00429436 -0.00868601 0.000573526 0.000180901 0.021936
0.00429077 -0.00868243 0.000573526 0.000180901 0.021936
0.00428805 -0.00867971 0.000573526 0.000180901 0.021936
0.00428632 -0.00867798 0.000573526 0.000180901 0.021936
0.00428499 -0.00867664 0.000573526 0.000180901 0.021936
0.00428163 -0.00867329 0.000573526 0.000180901 0.021936
0.00427573 -0.00866738 0.000573526 0.000180901 0.021936
0.00426982 -0.00866147 0.000573526 0.000180901 0.021936
0.0042649 -0.00865655 0.000573526 0.000180901 0.021936
0.0042609 -0.00865256 0.000573526 0.000180901 0.021936
0.00425772 -0.00864938 0.000573526 0.000180901 0.021936
0.00425533 -0.00864699 0.000573526 0.000180901 0.021936
0.00425384 -0.0086455 0.000573526 0.000180901 0.021936
0.00425325 -0.00864491 0.000573526 0.000180901 0.021936
0.00425245 -0.0086441 0.000573526 0.000180901 0.021936
0.00424888 -0.00864053 0.000573526 0.000180901 0.021936
0.00424332 -0.00863497 0.000573526 0.000180901 0.021936
0.00423808 -0.00862974 0.000573526 0.000180901 0.021936
0.0042337 -0.00862535 0.000573526 0.000180901 0.021936
0.00423003 -0.00862169 0.000573526 0.000180901 0.021936
0.004227 -0.00861865 0.000573526 0.000180901 0.021936
0.00422463 -0.00861629 0.000573526 0.000180901 0.021936
0.00422308 -0.00861473 0.000573526 0.000180901 0.021936
0.0042222 -0.00861386 0.000573526 0.000180901 0.021936
0.00422032 -0.00861198 0.000573526 0.000180901 0.021936
0.00421538 -0.00860703 0.000573526 0.000180901 0.021936
0.00420927 -0.00860092 0.000573526 0.000180901 0.021936
0.00420385 -0.0085955 0.000573526 0.000180901 0.021936
0.00419936 -0.00859101 0.000573526 0.000180901 0.021936
0.00419567 -0.00858733 0.000573526 0.000180901 0.021936
0.00419277 -0.00858442 0.000573526 0.000180901 0.021936
0.00419073 -0.00858238 0.000573526 0.000180901 0.021936
0.00418969 -0.00858135 0.000573526 0.000180901 0.021936
0.00418924 -0.0085809 0.000573526 0.000180901 0.021936
0.00418714 -0.00857879 0.000573526 0.000180901 0.021936
0.00418228 -0.00857393 0.000573526 0.000180901 0.021936
0.00417712 -0.00856877 0.000573526 0.000180901 0.021936
0.0041729 -0.00856456 0.000573526 0.000180901 0.021936
0.00416964 -0.0085613 0.000573526 0.000180901 0.021936
0.00416718 -0.00855884 0.000573526 0.000180901 0.021936
0.00416551 -0.00855717 0.000573526 0.000180901 0.021936
0.00416472 -0.00855638 0.000573526 0.000180901 0.021936
0.00416487 -0.00855653 0.000573526 0.000180901 0.021936
0.00416509 -0.00855674 0.000573526 0.000180901 0.021936
0.00416283 -0.00855449 0.000573526 0.000180901 0.021936
0.00415829 -0.00854994 0.000573526 0.000180901 0.021936
0.00415393 -0.00854559 0.000573526 0.000180901 0.021936
0.0041505 -0.00854216 0.000573526 0.000180901 0.021936
0.00414791 -0.00853957 0.000573526 0.000180901 0.021936
0.00414606 -0.00853771 0.000573526 0.000180901 0.021936
0.00414497 -0.00853663 0.000573526 0.000180901 0.021936
0.00414479 -0.00853645 0.000573526 0.000180901 0.021936
0.00414548 -0.00853714 0.000573526 0.000180901 0.021936
0.00414561 -0.00853727 0.000573526 0.000180901 0.021936
0.00414285 -0.00853451 0.000573526 0.000180901 0.021936
0.00413861 -0.00853026 0.000573526 0.000180901 0.021936
0.00413499 -0.00852665 0.000573526 0.000180901 0.021936
0.00413233 -0.00852399 0.000573526 0.000180901 0.021936
0.00413049 -0.00852215 0.000573526 0.000180901 0.021936
0.0041294 -0.00852105 0.000573526 0.000180901 0.021936
0.00412909 -0.00852075 0.000573526 0.000180901 0.021936
0.00412971 -0.00852137 0.000573526 0.000180901 0.021936
0.00413095 -0.00852261 0.000573526 0.000180901 0.021936
0.0041308 -0.00852245 0.000573526 0.000180901 0.021936
0.00412763 -0.00851928 0.000573526 0.000180901 0.021936
0.00412369 -0.00851534 0.000573526 0.000180901 0.021936
0.0041205 -0.00851216 0.000573526 0.000180901 0.021936
0.00411815 -0.0085098 0.000573526 0.000180901 0.021936
0.00411648 -0.00850814 0.000573526 0.000180901 0.021936
0.00411549 -0.00850715 0.000573526 0.000180901 0.021936
0.00411526 -0.00850692 0.000573526 0.000180901 0.021936
0.00411592 -0.00850758 0.000573526 0.000180901 0.021936
0.00411682 -0.00850848 0.000573526 0.000180901 0.021936
0.00411555 -0.0085072 0.000573526 0.000180901 0.021936
0.00411169 -0.00850335 0.000573526 0.000180901 0.021936
0.00410782 -0.00849948 0.000573526 0.000180901 0.021936
0.0041049 -0.00849656 0.000573526 0.000180901 0.021936
0.0041029 -0.00849456 0.000573526 0.000180901 0.021936
0.00410173 -0.00849338 0.000573526 0.000180901 0.021936
0.00410139 -0.00849305 0.000573526 0.000180901 0.021936
0.00410204 -0.0084937 0.000573526 0.000180901 0.021936
0.00410369 -0.00849535 0.000573526 0.000180901 0.021936
0.00410519 -0.00849685 0.000573526 0.000180901 0.021936
0.00410405 -0.0084957 0.000573526 0.000180901 0.021936
0.00410114 -0.00849279 0.000573526 0.000180901 0.021936
0.00409877 -0.00849042 0.000573526 0.000180901 0.021936
0.00409743 -0.00848908 0.000573526 0.000180901 0.021936
0.00409698 -0.00848864 0.000573526 0.000180901 0.021936
0.00409732 -0.00848898 0.000573526 0.000180901 0.021936
0.00409848 -0.00849013 0.000573526 0.000180901 0.021936
0.00410056 -0.00849222 0.000573526 0.000180901 0.021936
0.0041034 -0.00849506 0.000573526 0.000180901 0.021936
0.00410522 -0.00849688 0.000573526 0.000180901 0.021936
0.004104 -0.00849565 0.000573526 0.000180901 0.021936
0.00410165 -0.00849331 0.000573526 0.000180901 0.021936
0.00409998 -0.00849164 0.000573526 0.000180901 0.021936
0.00409917 -0.00849083 0.000573526 0.000180901 0.021936
0.00409907 -0.00849073 0.000573526 0.000180901 0.021936
0.00409964 -0.0084913 0.000573526 0.000180901 0.021936
0.00410097 -0.00849263 0.000573526 0.000180901 0.021936
0.0041032 -0.00849486 0.000573526 0.000180901 0.021936
0.00410587 -0.00849753 0.000573526 0.000180901 0.021936
0.00410671 -0.00849837 0.000573526 0.000180901 0.021936
0.00410475 -0.00849641 0.000573526 0.000180901 0.021936
0.00410248 -0.00849413 0.000573526 0.000180901 0.021936
0.0041011 -0.00849276 0.000573526 0.000180901 0.021936
0.00410064 -0.0084923 0.000573526 0.000180901 0.021936
0.00410097 -0.00849262 0.000573526 0.000180901 0.021936
0.00410208 -0.00849374 0.000573526 0.000180901 0.021936
0.0041041 -0.00849576 0.000573526 0.000180901 0.021936
0.00410709 -0.00849875 0.000573526 0.000180901 0.021936
0.00411013 -0.00850179 0.000573526 0.000180901 0.021936
0.00411069 -0.00850235 0.000573526 0.000180901 0.021936
0.00410907 -0.00850072 0.000573526 0.000180901 0.021936
0.00410771 -0.00849937 0.000573526 0.000180901 0.021936
0.00410731 -0.00849897 0.000573526 0.000180901 0.021936
0.00410775 -0.00849941 0.000573526 0.000180901 0.021936
0.00410894 -0.0085006 0.000573526 0.000180901 0.021936
0.00411089 -0.00850255 0.000573526 0.000180901 0.021936
0.00411373 -0.00850539 0.000573526 0.000180901 0.021936
0.00411741 -0.00850907 0.000573526 0.000180901 0.021936
0.00412045 -0.00851211 0.000573526 0.000180901 0.021936
0.00412056 -0.00851222 0.000573526 0.000180901 0.021936
0.00411925 -0.00851091 0.000573526 0.000180901 0.021936
0.0041186 -0.00851026 0.000573526 0.000180901 0.021936
0.00411892 -0.00851058 0.000573526 0.000180901 0.021936
